 COND=   48697.2695    
 xstar res   1.31597376    
 quanc8 res   1.05072427    
 ==============================================
 Начальные условия (решение СЛАУ):
 A =   0.00000000     , B =   0.00000000     , C =   4.00000000     , D =  -0.00000000    
 Параметры системы:
 L =   1.00000000     , M =   1.00000119     , K =   39.2400017    
 ==============================================
   t           x(t)          x'(t)       theta(t)      theta'(t)
  0.05      0.019523      0.762219      0.196620      3.801180
  0.10      0.072775      1.320999      0.375134      3.306671
  0.15      0.146260      1.561435      0.525711      2.715075
  0.20      0.223306      1.467099      0.647438      2.168004
  0.25      0.288128      1.083191      0.744134      1.716490
  0.30      0.328039      0.484543      0.820640      1.357543
  0.35      0.334464     -0.241082      0.881046      1.067937
  0.40      0.303347     -1.001811      0.928116      0.819226
  0.45      0.235194     -1.708159      0.963135      0.580292
  0.50      0.134801     -2.278736      0.985683      0.313086
  0.55      0.010742     -2.644449      0.993083     -0.036780
  0.60     -0.125289     -2.749123      0.979239     -0.554094
  0.65     -0.259000     -2.543314      0.932825     -1.362621
  0.70     -0.373515     -1.970770      0.836215     -2.568222
  0.75     -0.448967     -0.974865      0.672248     -3.970878
  0.80     -0.464743      0.385615      0.450389     -4.699996
  0.85     -0.409628      1.791367      0.225139     -4.119366
  0.90     -0.290958      2.885454      0.048393     -2.936773
  0.95     -0.128639      3.530215     -0.071976     -1.935375
  1.00      0.054487      3.721212     -0.150901     -1.272663
  1.05      0.236425      3.489396     -0.203402     -0.859994
  1.10      0.397205      2.885101     -0.239427     -0.600196
  1.15      0.519933      1.981431     -0.264892     -0.429454
  1.20      0.591939      0.873781     -0.283212     -0.309576
  1.25      0.605772     -0.325951     -0.296300     -0.216979
  1.30      0.559799     -1.498533     -0.305087     -0.135057
  1.35      0.458311     -2.528067     -0.309735     -0.048781
  1.40      0.311088     -3.312600     -0.309588      0.060513
  1.45      0.132467     -3.773193     -0.302818      0.222523
  1.50     -0.059983     -3.859940     -0.285591      0.490577
  1.55     -0.246951     -3.552971     -0.250436      0.959846
  1.60     -0.408780     -2.856519     -0.183987      1.763856
  1.65     -0.526457     -1.792701     -0.068094      2.902453
  1.70     -0.583147     -0.440861      0.101517      3.731531
  1.75     -0.569586      0.966022      0.282673      3.286627
  1.80     -0.490350      2.152139      0.416519      2.037605
  1.85     -0.359956      3.005900      0.490363      0.988821
  1.90     -0.195616      3.508359      0.522557      0.359720
  1.95     -0.015124      3.651038      0.531003      0.012046
  2.00      0.163532      3.437252      0.526187     -0.188067
  2.05      0.323107      2.894754      0.513332     -0.318898
  2.10      0.448452      2.079791      0.494733     -0.423029
  2.15      0.527901      1.074405      0.471047     -0.525865
  2.20      0.554400     -0.020168      0.441850     -0.646521
  2.25      0.526258     -1.092286      0.405775     -0.804555
  2.30      0.447429     -2.029221      0.360355     -1.025377
  2.35      0.327352     -2.725648      0.301589     -1.345690
  2.40      0.180415     -3.089653      0.223270     -1.817346
  2.45      0.025190     -3.046157      0.116344     -2.498331
  2.50     -0.116530     -2.544111     -0.030244     -3.393200
  2.55     -0.221653     -1.593160     -0.223250     -4.291034
  2.60     -0.270934     -0.354910     -0.450546     -4.664755
  2.65     -0.258053      0.830180     -0.674508     -4.156404
  2.70     -0.194022      1.657625     -0.857255     -3.117141
  2.75     -0.099791      2.039582     -0.986600     -2.086643
  2.80      0.003374      2.028550     -1.069801     -1.281610
  2.85      0.097950      1.710657     -1.118334     -0.689494
  2.90      0.170781      1.173304     -1.141093     -0.238246
  2.95      0.213091      0.504708     -1.143359      0.140548
  3.00      0.220585     -0.203835     -1.127304      0.503194
  3.05      0.193605     -0.858528     -1.092478      0.899560
  3.10      0.137201     -1.365186     -1.035969      1.378640
  3.15      0.061093     -1.631626     -0.952463      1.986002
  3.20     -0.020522     -1.572358     -0.834903      2.738262
  3.25     -0.089670     -1.127158     -0.677463      3.554430
  3.30     -0.127018     -0.314099     -0.482583      4.179467
  3.35     -0.117621      0.701836     -0.268230      4.292432
  3.40     -0.058152      1.640641     -0.062842      3.848603
  3.45      0.041156      2.267518      0.112180      3.136427
  3.50      0.161761      2.487558      0.251261      2.445170
  3.55      0.283277      2.311069      0.359085      1.893492
  3.60      0.387255      1.798555      0.443039      1.486548
  3.65      0.458924      1.033995      0.509628      1.192963
  3.70      0.488072      0.114727      0.563661      0.979126
  3.75      0.469554     -0.855140      0.608409      0.817529
  3.80      0.403448     -1.771913      0.645910      0.685763
  3.85      0.294844     -2.540351      0.677129      0.562493
  3.90      0.153216     -3.081372      0.701868      0.421305
  3.95     -0.008542     -3.338168      0.718285      0.220577
  4.00     -0.175319     -3.278844      0.721734     -0.113567
  4.00     -0.175328     -3.278832      0.721733     -0.113590
